Date,Time,Open,High,Low,Close,Volume,OpenInt
2017-04-07,15:35:00,76.49,76.49,76.49,76.49,1403,0
2017-04-07,15:40:00,76.79,76.79,76.33,76.79,3460,0
2017-04-07,15:45:00,76.75,76.75,76.67,76.73,1200,0
2017-04-07,15:50:00,76.73,76.79,76.43,76.43,1900,0
2017-04-07,15:55:00,76.57,76.62,76.38,76.38,1402,0
2017-04-07,16:00:00,76.39,76.39,76.17,76.27,700,0
2017-04-07,16:05:00,76.29,76.5,76.29,76.38,1200,0
2017-04-07,16:10:00,76.5,76.5,76.41,76.41,800,0
2017-04-07,16:15:00,76.43,76.51,76.43,76.45,700,0
2017-04-07,16:20:00,76.47,76.47,76.47,76.47,100,0
2017-04-07,16:25:00,76.47,76.47,76.43,76.45,300,0
2017-04-07,16:30:00,76.47,76.53,76.42,76.53,500,0
2017-04-07,16:35:00,76.45,76.45,76.38,76.45,700,0
2017-04-07,16:40:00,76.42,76.42,76.42,76.42,100,0
2017-04-07,16:45:00,76.47,76.47,76.46,76.47,300,0
2017-04-07,16:50:00,76.38,76.44,76.38,76.39,800,0
2017-04-07,16:55:00,76.34,76.34,76.3,76.3,600,0
2017-04-07,17:00:00,76.27,76.29,76.17,76.17,1800,0
2017-04-07,17:05:00,76.18,76.29,76.15,76.29,1900,0
2017-04-07,17:10:00,76.25,76.25,76.24,76.24,400,0
2017-04-07,17:15:00,76.22,76.22,76.18,76.18,800,0
2017-04-07,17:20:00,76.19,76.2,76.19,76.2,1017,0
2017-04-07,17:25:00,76.17,76.17,76.159,76.17,683,0
2017-04-07,17:30:00,76.18,76.18,76.11,76.12,1100,0
2017-04-07,17:35:00,76.09,76.13,76.09,76.13,900,0
2017-04-07,17:40:00,76.14,76.14,76.07,76.1,800,0
2017-04-07,17:45:00,76.09,76.09,76.03,76.05,905,0
2017-04-07,17:50:00,76.05,76.06,76.02,76.02,612,0
2017-04-07,17:55:00,76.04,76.06,76.04,76.06,1300,0
2017-04-07,18:00:00,76.08,76.12,76.08,76.12,1100,0
2017-04-07,18:05:00,76.1,76.11,76.08,76.08,800,0
2017-04-07,18:10:00,76.15,76.16,76.14,76.16,300,0
2017-04-07,18:15:00,76.16,76.21,76.16,76.21,995,0
2017-04-07,18:20:00,76.22,76.23,76.21,76.23,600,0
2017-04-07,18:25:00,76.2199,76.2199,76.2199,76.2199,219,0
2017-04-07,18:30:00,76.22,76.24,76.2,76.24,700,0
2017-04-07,18:40:00,76.19,76.19,76.11,76.11,1113,0
2017-04-07,18:45:00,76.13,76.16,76.12,76.16,1190,0
2017-04-07,18:55:00,76.19,76.22,76.19,76.22,400,0
2017-04-07,19:00:00,76.24,76.27,76.24,76.27,1300,0
2017-04-07,19:05:00,76.29,76.29,76.22,76.27,3121,0
2017-04-07,19:10:00,76.24,76.24,76.24,76.24,100,0
2017-04-07,19:15:00,76.28,76.38,76.28,76.37,2586,0
2017-04-07,19:20:00,76.33,76.34,76.28,76.28,6000,0
2017-04-07,19:25:00,76.28,76.28,76.24,76.24,600,0
2017-04-07,19:30:00,76.26,76.32,76.26,76.3,1567,0
2017-04-07,19:35:00,76.34,76.38,76.275,76.28,2019,0
2017-04-07,19:40:00,76.24,76.26,76.195,76.22,1000,0
2017-04-07,19:45:00,76.27,76.32,76.27,76.32,500,0
2017-04-07,19:50:00,76.27,76.27,76.24,76.26,700,0
2017-04-07,19:55:00,76.24,76.27,76.23,76.23,1200,0
2017-04-07,20:00:00,76.24,76.24,76.21,76.23,1142,0
2017-04-07,20:05:00,76.24,76.35,76.24,76.35,2138,0
2017-04-07,20:10:00,76.32,76.34,76.3,76.34,801,0
2017-04-07,20:15:00,76.35,76.35,76.32,76.35,1100,0
2017-04-07,20:20:00,76.32,76.32,76.29,76.29,1100,0
2017-04-07,20:25:00,76.28,76.31,76.28,76.31,1001,0
2017-04-07,20:30:00,76.29,76.29,76.21,76.21,1500,0
2017-04-07,20:35:00,76.21,76.24,76.21,76.2399,1200,0
2017-04-07,20:40:00,76.24,76.28,76.24,76.26,2220,0
2017-04-07,20:45:00,76.26,76.2699,76.23,76.23,900,0
2017-04-07,20:50:00,76.25,76.27,76.24,76.24,700,0
2017-04-07,20:55:00,76.21,76.21,76.18,76.18,800,0
2017-04-07,21:00:00,76.205,76.26,76.205,76.26,2127,0
2017-04-07,21:05:00,76.26,76.32,76.25,76.28,2400,0
2017-04-07,21:10:00,76.28,76.29,76.27,76.28,1545,0
2017-04-07,21:15:00,76.285,76.38,76.285,76.36,2121,0
2017-04-07,21:20:00,76.35,76.35,76.33,76.34,1600,0
2017-04-07,21:25:00,76.34,76.36,76.33,76.35,1500,0
2017-04-07,21:30:00,76.35,76.36,76.305,76.32,3392,0
2017-04-07,21:35:00,76.3,76.3,76.25,76.27,1400,0
2017-04-07,21:40:00,76.28,76.28,76.21,76.22,2775,0
2017-04-07,21:45:00,76.23,76.26,76.23,76.26,2255,0
2017-04-07,21:50:00,76.26,76.3,76.26,76.27,9599,0
2017-04-07,21:55:00,76.27,76.28,76.23,76.23,6414,0
2017-04-07,22:00:00,76.25,76.3,76.15,76.16,64354,0
2017-04-10,15:35:00,75.94,75.94,75.94,75.94,5277,0
2017-04-10,15:40:00,76.03,76.18,75.92,76.065,1668,0
2017-04-10,15:45:00,76.15,76.47,76.15,76.16,2000,0
2017-04-10,15:50:00,76.17,76.42,76.11,76.255,4832,0
2017-04-10,15:55:00,76.26,76.28,76.225,76.28,1802,0
2017-04-10,16:00:00,76.31,76.33,76.26,76.3,1000,0
2017-04-10,16:05:00,76.34,76.4,76.3,76.38,1400,0
2017-04-10,16:10:00,76.41,76.46,76.36,76.36,1100,0
2017-04-10,16:15:00,76.41,76.41,76.3,76.39,1700,0
2017-04-10,16:20:00,76.39,76.42,76.34,76.4,1800,0
2017-04-10,16:25:00,76.35,76.39,76.33,76.38,700,0
2017-04-10,16:30:00,76.34,76.4,76.33,76.36,1770,0
2017-04-10,16:35:00,76.37,76.57,76.37,76.57,2400,0
2017-04-10,16:40:00,76.62,76.65,76.6,76.6,3100,0
2017-04-10,16:45:00,76.63,76.63,76.62,76.62,500,0
2017-04-10,16:50:00,76.7,76.73,76.67,76.7,2604,0
2017-04-10,16:55:00,76.72,76.76,76.7,76.72,1900,0
2017-04-10,17:00:00,76.73,76.79,76.65,76.65,7140,0
2017-04-10,17:05:00,76.665,76.73,76.66,76.73,3200,0
2017-04-10,17:10:00,76.74,76.75,76.68,76.71,6300,0
2017-04-10,17:15:00,76.82,76.88,76.81,76.88,1700,0
2017-04-10,17:20:00,76.82,76.87,76.79,76.79,3000,0
2017-04-10,17:25:00,76.8,76.94,76.8,76.84,16652,0
2017-04-10,17:30:00,76.85,76.85,76.66,76.66,4602,0
2017-04-10,17:35:00,76.66,76.66,76.41,76.41,4100,0
2017-04-10,17:40:00,76.4,76.4,76.27,76.27,1621,0
2017-04-10,17:45:00,76.29,76.29,76.25,76.28,3000,0
2017-04-10,17:50:00,76.26,76.26,76.19,76.2,1200,0
2017-04-10,17:55:00,76.2,76.31,76.17,76.31,3432,0
2017-04-10,18:00:00,76.3,76.3,76.3,76.3,100,0
2017-04-10,18:05:00,76.34,76.41,76.33,76.41,1900,0
2017-04-10,18:10:00,76.421,76.45,76.421,76.4288,911,0
2017-04-10,18:15:00,76.37,76.37,76.21,76.21,1200,0
2017-04-10,18:20:00,76.24,76.27,76.24,76.27,701,0
2017-04-10,18:25:00,76.32,76.33,76.32,76.32,700,0
2017-04-10,18:30:00,76.28,76.31,76.28,76.31,500,0
2017-04-10,18:35:00,76.29,76.35,76.28,76.33,1339,0
2017-04-10,18:40:00,76.32,76.32,76.3,76.3,500,0
2017-04-10,18:45:00,76.34,76.365,76.34,76.365,400,0
2017-04-10,18:50:00,76.36,76.425,76.36,76.425,600,0
2017-04-10,18:55:00,76.47,76.4774,76.45,76.45,621,0
2017-04-10,19:00:00,76.44,76.44,76.44,76.44,400,0
2017-04-10,19:05:00,76.44,76.45,76.41,76.41,1500,0
2017-04-10,19:10:00,76.41,76.43,76.41,76.42,300,0
2017-04-10,19:15:00,76.4,76.46,76.4,76.46,1100,0
2017-04-10,19:20:00,76.48,76.5,76.48,76.49,600,0
2017-04-10,19:25:00,76.45,76.46,76.43,76.46,1400,0
2017-04-10,19:30:00,76.46,76.47,76.41,76.43,500,0
2017-04-10,19:35:00,76.45,76.51,76.45,76.51,708,0
2017-04-10,19:40:00,76.54,76.6,76.54,76.6,300,0
2017-04-10,19:45:00,76.55,76.55,76.55,76.55,420,0
2017-04-10,19:50:00,76.53,76.5475,76.52,76.53,1881,0
2017-04-10,19:55:00,76.52,76.52,76.48,76.48,720,0
2017-04-10,20:00:00,76.49,76.54,76.49,76.52,874,0
2017-04-10,20:05:00,76.51,76.52,76.47,76.47,900,0
2017-04-10,20:10:00,76.43,76.43,76.42,76.42,400,0
2017-04-10,20:15:00,76.46,76.54,76.46,76.54,1000,0
2017-04-10,20:20:00,76.61,76.61,76.53,76.54,700,0
2017-04-10,20:25:00,76.55,76.62,76.55,76.62,600,0
2017-04-10,20:30:00,76.59,76.61,76.59,76.61,900,0
2017-04-10,20:35:00,76.59,76.6,76.585,76.59,600,0
2017-04-10,20:40:00,76.55,76.6,76.55,76.59,1400,0
2017-04-10,20:45:00,76.6,76.69,76.6,76.69,600,0
2017-04-10,20:50:00,76.72,76.72,76.72,76.72,300,0
2017-04-10,20:55:00,76.72,76.78,76.72,76.78,500,0
2017-04-10,21:00:00,76.74,76.755,76.71,76.71,1300,0
2017-04-10,21:05:00,76.73,76.75,76.73,76.745,842,0
2017-04-10,21:10:00,76.79,76.83,76.79,76.83,822,0
2017-04-10,21:15:00,76.81,76.85,76.81,76.85,400,0
2017-04-10,21:20:00,76.85,76.88,76.82,76.83,1289,0
2017-04-10,21:25:00,76.8,76.8,76.69,76.74,2366,0
2017-04-10,21:30:00,76.76,76.81,76.75,76.795,3328,0
2017-04-10,21:35:00,76.795,76.84,76.79,76.84,3295,0
2017-04-10,21:40:00,76.83,76.89,76.815,76.88,4264,0
2017-04-10,21:45:00,76.87,76.95,76.85,76.9,8400,0
2017-04-10,21:50:00,76.89,76.91,76.82,76.85,8706,0
2017-04-10,21:55:00,76.85,76.85,76.81,76.85,8896,0
2017-04-10,22:00:00,76.84,76.91,76.83,76.89,28317,0
2017-04-11,15:35:00,76.6,76.62,76.6,76.62,1543,0
2017-04-11,15:40:00,76.47,76.47,76.47,76.47,100,0
2017-04-11,15:50:00,76.52,76.63,76.415,76.63,4280,0
2017-04-11,15:55:00,76.6,76.71,76.48,76.68,1900,0
2017-04-11,16:00:00,76.66,76.74,76.62,76.74,1000,0
2017-04-11,16:05:00,76.78,76.84,76.75,76.83,800,0
2017-04-11,16:10:00,76.85,76.85,76.74,76.77,600,0
2017-04-11,16:15:00,76.83,76.83,76.76,76.76,1300,0
2017-04-11,16:20:00,76.74,76.789,76.71,76.78,2019,0
2017-04-11,16:25:00,76.77,76.77,76.7,76.7,900,0
2017-04-11,16:30:00,76.7,76.83,76.69,76.83,1400,0
2017-04-11,16:35:00,76.81,76.83,76.65,76.65,600,0
2017-04-11,16:40:00,76.69,76.78,76.69,76.75,400,0
2017-04-11,16:45:00,76.77,76.77,76.68,76.68,600,0
2017-04-11,16:50:00,76.73,76.76,76.71,76.75,1000,0
2017-04-11,16:55:00,76.71,76.7185,76.64,76.64,1059,0
2017-04-11,17:00:00,76.67,76.71,76.66,76.7,1898,0
2017-04-11,17:05:00,76.65,76.69,76.64,76.69,800,0
2017-04-11,17:10:00,76.66,76.66,76.64,76.64,300,0
2017-04-11,17:15:00,76.64,76.64,76.59,76.59,600,0
2017-04-11,17:20:00,76.55,76.56,76.55,76.56,809,0
2017-04-11,17:25:00,76.545,76.58,76.545,76.57,900,0
2017-04-11,17:30:00,76.54,76.54,76.52,76.52,400,0
2017-04-11,17:35:00,76.545,76.545,76.545,76.545,100,0
2017-04-11,17:40:00,76.535,76.57,76.535,76.56,1200,0
2017-04-11,17:45:00,76.54,76.54,76.49,76.49,800,0
2017-04-11,17:50:00,76.51,76.54,76.51,76.5399,1543,0
2017-04-11,17:55:00,76.54,76.58,76.53,76.53,2113,0
2017-04-11,18:00:00,76.56,76.57,76.55,76.55,900,0
2017-04-11,18:05:00,76.54,76.54,76.54,76.54,100,0
2017-04-11,18:10:00,76.56,76.56,76.54,76.54,300,0
2017-04-11,18:15:00,76.54,76.56,76.5,76.56,1100,0
2017-04-11,18:20:00,76.56,76.59,76.56,76.59,1146,0
2017-04-11,18:25:00,76.58,76.64,76.58,76.63,600,0
2017-04-11,18:30:00,76.638,76.638,76.638,76.638,100,0
2017-04-11,18:35:00,76.5968,76.6375,76.5968,76.6375,510,0
2017-04-11,18:40:00,76.62,76.62,76.6,76.6,305,0
2017-04-11,18:45:00,76.58,76.58,76.58,76.58,200,0
2017-04-11,18:50:00,76.59,76.59,76.565,76.59,600,0
2017-04-11,18:55:00,76.62,76.67,76.6,76.67,800,0
2017-04-11,19:00:00,76.68,76.68,76.65,76.65,400,0
2017-04-11,19:05:00,76.65,76.67,76.64,76.64,300,0
2017-04-11,19:10:00,76.61,76.61,76.56,76.56,450,0
2017-04-11,19:15:00,76.61,76.61,76.6,76.61,1034,0
2017-04-11,19:20:00,76.59,76.59,76.59,76.59,100,0
2017-04-11,19:25:00,76.62,76.63,76.61,76.61,1445,0
2017-04-11,19:35:00,76.58,76.58,76.54,76.57,1300,0
2017-04-11,19:40:00,76.58,76.58,76.55,76.56,564,0
2017-04-11,19:45:00,76.595,76.595,76.52,76.57,300,0
2017-04-11,19:50:00,76.55,76.55,76.5,76.51,1500,0
2017-04-11,19:55:00,76.53,76.54,76.49,76.54,2438,0
2017-04-11,20:00:00,76.54,76.55,76.53,76.54,2325,0
2017-04-11,20:05:00,76.57,76.62,76.53,76.565,2278,0
2017-04-11,20:10:00,76.59,76.61,76.57,76.6,1500,0
2017-04-11,20:15:00,76.59,76.65,76.5,76.615,3500,0
2017-04-11,20:20:00,76.63,76.63,76.58,76.59,400,0
2017-04-11,20:25:00,76.64,76.66,76.63,76.63,1100,0
2017-04-11,20:30:00,76.66,76.74,76.64,76.72,3100,0
2017-04-11,20:35:00,76.74,76.75,76.7,76.75,1190,0
2017-04-11,20:40:00,76.76,76.825,76.73,76.74,2141,0
2017-04-11,20:45:00,76.74,76.74,76.72,76.73,1146,0
2017-04-11,20:50:00,76.75,76.81,76.745,76.8,4140,0
2017-04-11,20:55:00,76.81,76.88,76.8,76.88,1476,0
2017-04-11,21:00:00,76.91,76.91,76.855,76.855,488,0
2017-04-11,21:05:00,76.88,76.88,76.78,76.78,1600,0
2017-04-11,21:10:00,76.77,76.77,76.73,76.74,800,0
2017-04-11,21:15:00,76.76,76.76,76.71,76.71,700,0
2017-04-11,21:20:00,76.71,76.72,76.66,76.72,1529,0
2017-04-11,21:25:00,76.72,76.79,76.7,76.78,2700,0
2017-04-11,21:30:00,76.81,76.88,76.81,76.87,2800,0
2017-04-11,21:35:00,76.86,76.9,76.855,76.855,2115,0
2017-04-11,21:40:00,76.9,76.9599,76.89,76.95,4164,0
2017-04-11,21:45:00,76.96,76.96,76.86,76.88,2641,0
2017-04-11,21:50:00,76.84,76.84,76.795,76.8,7931,0
2017-04-11,21:55:00,76.81,76.84,76.79,76.8,5294,0
2017-04-11,22:00:00,76.81,76.97,76.8001,76.92,99934,0
2017-04-12,15:35:00,76.89,76.89,76.89,76.89,1313,0
2017-04-12,15:40:00,76.92,76.92,76.92,76.92,100,0
2017-04-12,15:45:00,76.77,76.77,76.74,76.74,900,0
2017-04-12,15:50:00,76.74,76.805,76.74,76.8,1700,0
2017-04-12,15:55:00,76.81,76.81,76.75,76.763,300,0
2017-04-12,16:00:00,76.7,76.75,76.7,76.75,980,0
2017-04-12,16:05:00,76.75,76.78,76.75,76.76,800,0
2017-04-12,16:10:00,76.85,76.85,76.81,76.81,300,0
2017-04-12,16:15:00,76.74,76.74,76.74,76.74,100,0
2017-04-12,16:20:00,76.79,76.83,76.79,76.83,500,0
2017-04-12,16:25:00,76.79,76.79,76.76,76.76,400,0
2017-04-12,16:30:00,76.7,76.73,76.7,76.7,2900,0
2017-04-12,16:35:00,76.72,76.77,76.64,76.64,2248,0
2017-04-12,16:40:00,76.64,76.64,76.54,76.55,1300,0
2017-04-12,16:45:00,76.5,76.5,76.5,76.5,100,0
2017-04-12,16:50:00,76.38,76.38,76.33,76.38,600,0
2017-04-12,16:55:00,76.42,76.42,76.4,76.4,800,0
2017-04-12,17:00:00,76.34,76.35,76.335,76.335,600,0
2017-04-12,17:05:00,76.37,76.42,76.37,76.41,4495,0
2017-04-12,17:10:00,76.42,76.5,76.42,76.5,1300,0
2017-04-12,17:15:00,76.53,76.53,76.53,76.53,100,0
2017-04-12,17:20:00,76.49,76.5078,76.42,76.42,811,0
2017-04-12,17:25:00,76.38,76.39,76.37,76.39,600,0
2017-04-12,17:30:00,76.37,76.43,76.37,76.43,2902,0
2017-04-12,17:35:00,76.4101,76.4101,76.4,76.4,432,0
2017-04-12,17:40:00,76.36,76.36,76.3,76.3,1700,0
2017-04-12,17:45:00,76.32,76.34,76.32,76.33,1300,0
2017-04-12,17:50:00,76.31,76.32,76.24,76.24,2201,0
2017-04-12,17:55:00,76.27,76.27,76.15,76.2,3630,0
2017-04-12,18:00:00,76.18,76.21,76.18,76.2,3095,0
2017-04-12,18:05:00,76.21,76.21,76.17,76.17,828,0
2017-04-12,18:10:00,76.185,76.185,76.17,76.17,1400,0
2017-04-12,18:15:00,76.17,76.23,76.17,76.22,3180,0
2017-04-12,18:20:00,76.19,76.21,76.18,76.18,900,0
2017-04-12,18:25:00,76.18,76.18,76.12,76.15,1036,0
2017-04-12,18:30:00,76.13,76.14,76.13,76.14,300,0
2017-04-12,18:35:00,76.13,76.3799,76.13,76.31,7612,0
2017-04-12,18:40:00,76.3,76.35,76.295,76.32,700,0
2017-04-12,18:45:00,76.35,76.37,76.35,76.37,1300,0
2017-04-12,18:50:00,76.375,76.44,76.375,76.44,1157,0
2017-04-12,18:55:00,76.43,76.43,76.39,76.39,709,0
2017-04-12,19:00:00,76.3,76.34,76.3,76.34,700,0
2017-04-12,19:05:00,76.34,76.35,76.33,76.33,2239,0
2017-04-12,19:10:00,76.32,76.38,76.31,76.38,3080,0
2017-04-12,19:15:00,76.37,76.4,76.37,76.4,599,0
2017-04-12,19:20:00,76.4104,76.4104,76.38,76.4,995,0
2017-04-12,19:25:00,76.37,76.37,76.26,76.26,900,0
2017-04-12,19:30:00,76.27,76.29,76.27,76.29,400,0
2017-04-12,19:35:00,76.31,76.34,76.31,76.33,1400,0
2017-04-12,19:40:00,76.35,76.4,76.35,76.4,900,0
2017-04-12,19:45:00,76.39,76.42,76.39,76.41,1600,0
2017-04-12,19:50:00,76.36,76.37,76.36,76.37,468,0
2017-04-12,19:55:00,76.35,76.36,76.35,76.35,500,0
2017-04-12,20:00:00,76.34,76.37,76.28,76.37,3926,0
2017-04-12,20:05:00,76.36,76.36,76.26,76.26,1316,0
2017-04-12,20:10:00,76.29,76.29,76.25,76.28,400,0
2017-04-12,20:15:00,76.28,76.33,76.28,76.32,1700,0
2017-04-12,20:20:00,76.31,76.31,76.28,76.28,500,0
2017-04-12,20:25:00,76.29,76.31,76.28,76.28,1100,0
2017-04-12,20:30:00,76.26,76.27,76.24,76.26,988,0
2017-04-12,20:35:00,76.25,76.3,76.15,76.17,7138,0
2017-04-12,20:40:00,76.17,76.22,76.11,76.18,7288,0
2017-04-12,20:45:00,76.16,76.16,76.11,76.13,1100,0
2017-04-12,20:50:00,76.14,76.14,76.05,76.05,700,0
2017-04-12,20:55:00,76.05,76.12,76.04,76.08,2900,0
2017-04-12,21:00:00,76.11,76.13,76.09,76.13,1464,0
2017-04-12,21:05:00,76.11,76.18,76.11,76.18,3950,0
2017-04-12,21:10:00,76.18,76.22,76.16,76.22,1132,0
2017-04-12,21:15:00,76.21,76.25,76.16,76.17,3530,0
2017-04-12,21:20:00,76.19,76.19,76.14,76.14,2600,0
2017-04-12,21:25:00,76.16,76.24,76.16,76.2,6027,0
2017-04-12,21:30:00,76.2,76.21,76.17,76.19,4712,0
2017-04-12,21:35:00,76.21,76.24,76.2,76.23,2903,0
2017-04-12,21:40:00,76.23,76.23,76.16,76.19,4156,0
2017-04-12,21:45:00,76.2,76.23,76.19,76.19,4543,0
2017-04-12,21:50:00,76.22,76.23,76.205,76.23,7691,0
2017-04-12,21:55:00,76.23,76.2418,76.19,76.21,6809,0
2017-04-12,22:00:00,76.22,76.3,76.22,76.23,30656,0
2017-04-13,15:35:00,76.05,76.45,76.05,76.45,2618,0
2017-04-13,15:40:00,76.34,76.34,75.91,76.2,1000,0
2017-04-13,15:45:00,76.085,76.18,76.05,76.05,1500,0
2017-04-13,15:50:00,76.08,76.08,76.03,76.03,900,0
2017-04-13,15:55:00,76.12,76.31,76.12,76.265,725,0
2017-04-13,16:00:00,76.24,76.33,76.24,76.33,400,0
2017-04-13,16:05:00,76.48,76.48,76.32,76.4,300,0
2017-04-13,16:10:00,76.31,76.32,76.2,76.2,1100,0
2017-04-13,16:15:00,76.23,76.23,76.07,76.07,600,0
2017-04-13,16:20:00,76.07,76.1,76.05,76.05,1200,0
2017-04-13,16:25:00,76,76.08,76,76.075,955,0
2017-04-13,16:30:00,76.12,76.16,76.12,76.13,1100,0
2017-04-13,16:35:00,76.23,76.23,76.16,76.16,200,0
2017-04-13,16:40:00,76.25,76.25,76.24,76.24,200,0
2017-04-13,16:45:00,76.25,76.31,76.25,76.28,600,0
2017-04-13,16:50:00,76.305,76.37,76.305,76.37,677,0
2017-04-13,16:55:00,76.41,76.41,76.36,76.36,300,0
2017-04-13,17:00:00,76.53,76.53,76.485,76.485,300,0
2017-04-13,17:05:00,76.44,76.45,76.42,76.45,701,0
2017-04-13,17:10:00,76.44,76.47,76.42,76.42,1214,0
2017-04-13,17:15:00,76.47,76.5,76.44,76.44,660,0
2017-04-13,17:20:00,76.43,76.43,76.41,76.41,400,0
2017-04-13,17:25:00,76.46,76.59,76.45,76.59,1900,0
2017-04-13,17:30:00,76.54,76.56,76.52,76.53,615,0
2017-04-13,17:35:00,76.51,76.51,76.46,76.48,914,0
2017-04-13,17:40:00,76.49,76.49,76.44,76.44,400,0
2017-04-13,17:45:00,76.42,76.435,76.415,76.435,781,0
2017-04-13,17:50:00,76.44,76.455,76.44,76.44,400,0
2017-04-13,17:55:00,76.42,76.45,76.42,76.45,600,0
2017-04-13,18:00:00,76.467,76.467,76.42,76.42,400,0
2017-04-13,18:05:00,76.4,76.4,76.39,76.39,200,0
2017-04-13,18:10:00,76.35,76.35,76.26,76.27,1500,0
2017-04-13,18:15:00,76.28,76.36,76.27,76.34,1100,0
2017-04-13,18:20:00,76.29,76.29,76.238,76.238,407,0
2017-04-13,18:25:00,76.25,76.25,76.21,76.21,500,0
2017-04-13,18:30:00,76.2,76.255,76.2,76.255,1000,0
2017-04-13,18:35:00,76.23,76.28,76.23,76.28,675,0
2017-04-13,18:40:00,76.36,76.36,76.31,76.31,592,0
2017-04-13,18:45:00,76.27,76.27,76.22,76.24,729,0
2017-04-13,18:50:00,76.21,76.21,76.17,76.17,200,0
2017-04-13,18:55:00,76.11,76.15,76.09,76.15,900,0
2017-04-13,19:00:00,76.13,76.17,76.083,76.14,1819,0
2017-04-13,19:10:00,76.01,76.11,76.01,76.11,500,0
2017-04-13,19:15:00,76.07,76.075,76.04,76.05,748,0
2017-04-13,19:20:00,76.03,76.08,76.03,76.06,400,0
2017-04-13,19:25:00,76.07,76.08,76.02,76.03,1200,0
2017-04-13,19:30:00,76.05,76.07,76.04,76.06,901,0
2017-04-13,19:35:00,76.06,76.08,76.06,76.07,1100,0
2017-04-13,19:40:00,76.03,76.05,76,76.03,500,0
2017-04-13,19:45:00,76,76,75.96,75.96,400,0
2017-04-13,19:50:00,75.95,75.955,75.93,75.94,800,0
2017-04-13,19:55:00,75.98,76,75.96,76,300,0
2017-04-13,20:00:00,75.96,75.96,75.94,75.94,700,0
2017-04-13,20:05:00,75.98,76,75.97,76,600,0
2017-04-13,20:10:00,76.02,76.105,76.02,76.105,600,0
2017-04-13,20:15:00,76.08,76.12,76.08,76.08,1411,0
2017-04-13,20:20:00,76.07,76.09,76.055,76.09,1100,0
2017-04-13,20:25:00,76.06,76.06,76.03,76.04,1022,0
2017-04-13,20:30:00,76.06,76.1,76.05,76.06,1519,0
2017-04-13,20:35:00,76.03,76.06,76.02,76.02,650,0
2017-04-13,20:40:00,76.02,76.04,75.99,75.99,700,0
2017-04-13,20:45:00,76.01,76.04,75.99,76.04,1644,0
2017-04-13,20:50:00,76.03,76.035,76,76.03,1300,0
2017-04-13,20:55:00,76.01,76.02,75.98,75.98,1500,0
2017-04-13,21:00:00,75.98,76.01,75.97,76.01,1600,0
2017-04-13,21:05:00,75.98,76.01,75.92,75.94,2984,0
2017-04-13,21:10:00,75.94,75.94,75.88,75.88,1858,0
2017-04-13,21:15:00,75.86,75.87,75.84,75.84,1200,0
2017-04-13,21:20:00,75.84,75.84,75.79,75.82,3304,0
2017-04-13,21:25:00,75.83,75.86,75.83,75.855,1167,0
2017-04-13,21:30:00,75.86,75.875,75.84,75.84,1925,0
2017-04-13,21:35:00,75.85,75.9,75.84,75.84,2339,0
2017-04-13,21:40:00,75.83,75.83,75.78,75.79,3041,0
2017-04-13,21:45:00,75.78,75.79,75.7575,75.776,2616,0
2017-04-13,21:50:00,75.77,75.92,75.77,75.905,6131,0
2017-04-13,21:55:00,75.92,75.92,75.82,75.84,4986,0
2017-04-13,22:00:00,75.84,75.855,75.78,75.8,39073,0
2017-04-17,15:35:00,76.03,76.72,76.03,76.72,1227,0
2017-04-17,15:40:00,76.27,76.48,75.91,75.91,400,0
2017-04-17,15:45:00,76.09,76.13,75.88,76.12,1400,0
2017-04-17,15:50:00,76.09,76.19,76.08,76.19,2350,0
2017-04-17,15:55:00,76.27,76.335,76.27,76.33,1950,0
2017-04-17,16:00:00,76.37,76.43,76.3,76.3,2200,0
2017-04-17,16:05:00,76.41,76.41,76.25,76.3525,1300,0
2017-04-17,16:10:00,76.3,76.34,76.28,76.28,2000,0
2017-04-17,16:15:00,76.29,76.29,76.29,76.29,100,0
2017-04-17,16:20:00,76.28,76.33,76.28,76.32,800,0
2017-04-17,16:25:00,76.27,76.31,76.27,76.28,500,0
2017-04-17,16:30:00,76.255,76.28,76.24,76.24,545,0
2017-04-17,16:35:00,76.28,76.365,76.28,76.32,500,0
2017-04-17,16:40:00,76.43,76.43,76.36,76.38,700,0
2017-04-17,16:45:00,76.41,76.42,76.32,76.32,1400,0
2017-04-17,16:50:00,76.34,76.41,76.34,76.41,600,0
2017-04-17,16:55:00,76.44,76.44,76.44,76.44,100,0
2017-04-17,17:00:00,76.41,76.5,76.41,76.5,600,0
2017-04-17,17:05:00,76.5,76.56,76.48,76.56,1700,0
2017-04-17,17:10:00,76.6,76.65,76.6,76.64,1255,0
2017-04-17,17:15:00,76.66,76.68,76.64,76.68,500,0
2017-04-17,17:20:00,76.68,76.69,76.68,76.69,400,0
2017-04-17,17:25:00,76.66,76.66,76.61,76.65,1613,0
2017-04-17,17:35:00,76.6323,76.67,76.6323,76.67,432,0
2017-04-17,17:40:00,76.67,76.71,76.67,76.7099,1258,0
2017-04-17,17:45:00,76.67,76.68,76.65,76.68,500,0
2017-04-17,17:50:00,76.64,76.64,76.6101,76.6101,1663,0
2017-04-17,17:55:00,76.6,76.6742,76.6,76.65,4179,0
2017-04-17,18:00:00,76.67,76.68,76.65,76.68,1736,0
2017-04-17,18:05:00,76.66,76.67,76.66,76.66,400,0
2017-04-17,18:10:00,76.68,76.74,76.68,76.74,600,0
2017-04-17,18:15:00,76.71,76.72,76.6936,76.72,1050,0
2017-04-17,18:20:00,76.76,76.806,76.76,76.806,800,0
2017-04-17,18:25:00,76.8,76.85,76.8,76.85,700,0
2017-04-17,18:30:00,76.83,76.87,76.8,76.8,1179,0
2017-04-17,18:35:00,76.79,76.82,76.75,76.7696,2498,0
2017-04-17,18:40:00,76.8,76.81,76.8,76.81,300,0
2017-04-17,18:45:00,76.81,76.82,76.79,76.805,2502,0
2017-04-17,18:50:00,76.815,76.83,76.74,76.74,2332,0
2017-04-17,18:55:00,76.72,76.8,76.71,76.7725,3190,0
2017-04-17,19:00:00,76.78,76.8,76.75,76.7875,827,0
2017-04-17,19:05:00,76.75,76.76,76.71,76.745,6020,0
2017-04-17,19:10:00,76.8,76.85,76.8,76.8,900,0
2017-04-17,19:15:00,76.8,76.8,76.77,76.775,1300,0
2017-04-17,19:25:00,76.775,76.81,76.7701,76.81,1123,0
2017-04-17,19:30:00,76.82,76.87,76.82,76.87,1500,0
2017-04-17,19:35:00,76.88,76.91,76.88,76.91,500,0
2017-04-17,19:40:00,76.87,76.92,76.85,76.92,1400,0
2017-04-17,19:45:00,76.89,76.9,76.85,76.85,600,0
2017-04-17,19:50:00,76.85,76.88,76.85,76.88,545,0
2017-04-17,19:55:00,76.86,76.89,76.85,76.89,1500,0
2017-04-17,20:05:00,76.86,76.91,76.85,76.91,1382,0
2017-04-17,20:10:00,76.95,76.96,76.93,76.93,1000,0
2017-04-17,20:15:00,76.92,76.92,76.9,76.9,554,0
2017-04-17,20:20:00,76.92,76.93,76.88,76.88,700,0
2017-04-17,20:25:00,76.9,76.91,76.9,76.91,600,0
2017-04-17,20:30:00,76.91,76.91,76.87,76.8999,987,0
2017-04-17,20:35:00,76.91,76.92,76.91,76.92,500,0
2017-04-17,20:40:00,76.91,76.94,76.91,76.93,800,0
2017-04-17,20:45:00,76.92,76.92,76.92,76.92,100,0
2017-04-17,20:50:00,76.93,76.95,76.93,76.95,1067,0
2017-04-17,20:55:00,76.95,76.975,76.92,76.97,3170,0
2017-04-17,21:00:00,76.96,76.96,76.91,76.93,4968,0
2017-04-17,21:05:00,76.92,76.925,76.88,76.88,1100,0
2017-04-17,21:10:00,76.87,76.98,76.87,76.95,4357,0
2017-04-17,21:15:00,76.93,76.945,76.91,76.94,1934,0
2017-04-17,21:20:00,76.93,77.03,76.93,77.03,1400,0
2017-04-17,21:25:00,77.02,77.07,77.02,77.07,3291,0
2017-04-17,21:30:00,77.08,77.13,77.08,77.1,1800,0
2017-04-17,21:35:00,77.1,77.11,77.07,77.08,8027,0
2017-04-17,21:40:00,77.08,77.13,77.08,77.12,3468,0
2017-04-17,21:45:00,77.14,77.22,77.14,77.17,8181,0
2017-04-17,21:50:00,77.175,77.3,77.16,77.27,14112,0
2017-04-17,21:55:00,77.275,77.28,77.22,77.24,16086,0
2017-04-17,22:00:00,77.24,77.27,77.21,77.27,32657,0
2017-04-18,15:35:00,77.04,77.565,77.04,77.41,1458,0
2017-04-18,15:40:00,77.41,77.42,77.3,77.42,2275,0
2017-04-18,15:45:00,77.42,77.48,77.27,77.3,1800,0
2017-04-18,15:50:00,77.3,77.31,77.29,77.31,600,0
2017-04-18,15:55:00,77.27,77.47,77.16,77.47,1875,0
2017-04-18,16:00:00,77.46,77.59,77.4209,77.51,736,0
2017-04-18,16:05:00,77.46,77.5,77.37,77.37,1200,0
2017-04-18,16:10:00,77.29,77.34,77.29,77.3,983,0
2017-04-18,16:15:00,77.3,77.3,77.3,77.3,200,0
2017-04-18,16:20:00,77.27,77.32,77.21,77.21,1716,0
2017-04-18,16:25:00,77.19,77.26,77.19,77.24,1100,0
2017-04-18,16:30:00,77.24,77.27,77.21,77.21,1100,0
2017-04-18,16:35:00,77.21,77.26,77.21,77.26,1109,0
2017-04-18,16:40:00,77.27,77.3,77.17,77.19,3100,0
2017-04-18,16:45:00,77.161,77.17,77.16,77.17,520,0
2017-04-18,16:50:00,77.15,77.17,77.14,77.14,901,0
2017-04-18,16:55:00,77.11,77.12,77.06,77.07,1100,0
2017-04-18,17:00:00,77.07,77.1,77.06,77.08,1476,0
2017-04-18,17:05:00,77.02,77.02,77.02,77.02,100,0
2017-04-18,17:10:00,77.06,77.15,77.06,77.15,2208,0
2017-04-18,17:15:00,77.18,77.21,77.16,77.16,300,0
2017-04-18,17:20:00,77.18,77.18,77.1,77.1,1426,0
2017-04-18,17:25:00,77.13,77.18,77.1,77.18,1200,0
2017-04-18,17:30:00,77.16,77.21,77.16,77.21,500,0
2017-04-18,17:35:00,77.22,77.22,77.17,77.17,1200,0
2017-04-18,17:40:00,77.14,77.17,77.12,77.13,934,0
2017-04-18,17:45:00,77.13,77.14,77.09,77.11,1500,0
2017-04-18,17:50:00,77.13,77.16,77.09,77.09,1000,0
2017-04-18,17:55:00,77.105,77.16,77.105,77.16,1100,0
2017-04-18,18:00:00,77.16,77.16,77.09,77.12,1300,0
2017-04-18,18:05:00,77.09,77.09,77.0244,77.0244,300,0
2017-04-18,18:10:00,77.14,77.14,77.14,77.14,200,0
2017-04-18,18:15:00,77.07,77.1,77.05,77.1,400,0
2017-04-18,18:20:00,77.1,77.1,77.09,77.1,600,0
2017-04-18,18:25:00,77.08,77.08,77.05,77.06,300,0
2017-04-18,18:30:00,77.1,77.1,77.04,77.04,300,0
2017-04-18,18:35:00,77.02,77.05,77.01,77.04,900,0
2017-04-18,18:40:00,77.035,77.045,77.01,77.015,7600,0
2017-04-18,18:45:00,77,77,77,77,200,0
2017-04-18,18:50:00,77.015,77.015,76.94,76.94,800,0
2017-04-18,18:55:00,76.99,77.02,76.99,77.02,400,0
2017-04-18,19:00:00,77.06,77.06,76.98,76.98,800,0
2017-04-18,19:10:00,76.96,76.99,76.96,76.98,300,0
2017-04-18,19:15:00,77.03,77.03,77.03,77.03,100,0
2017-04-18,19:20:00,77.05,77.05,77.05,77.05,100,0
2017-04-18,19:25:00,77.01,77.01,77,77,200,0
2017-04-18,19:35:00,77.07,77.16,77.04,77.16,2300,0
2017-04-18,19:40:00,77.16,77.23,77.16,77.23,3000,0
2017-04-18,19:45:00,77.2,77.25,77.2,77.25,500,0
2017-04-18,19:50:00,77.23,77.445,77.22,77.33,7192,0
2017-04-18,19:55:00,77.34,77.53,77.29,77.47,3574,0
2017-04-18,20:00:00,77.375,77.45,77.375,77.43,2200,0
2017-04-18,20:05:00,77.43,77.51,77.43,77.51,1300,0
2017-04-18,20:10:00,77.4625,77.5,77.46,77.5,500,0
2017-04-18,20:15:00,77.47,77.53,77.47,77.53,2000,0
2017-04-18,20:20:00,77.555,77.56,77.555,77.56,250,0
2017-04-18,20:25:00,77.55,77.55,77.51,77.51,830,0
2017-04-18,20:30:00,77.49,77.52,77.48,77.52,515,0
2017-04-18,20:35:00,77.54,77.55,77.53,77.53,700,0
2017-04-18,20:40:00,77.55,77.57,77.54,77.57,408,0
2017-04-18,20:45:00,77.54,77.57,77.52,77.56,1800,0
2017-04-18,20:50:00,77.545,77.58,77.51,77.57,964,0
2017-04-18,20:55:00,77.55,77.57,77.55,77.57,300,0
2017-04-18,21:00:00,77.52,77.56,77.51,77.56,1100,0
2017-04-18,21:05:00,77.56,77.57,77.5,77.5,753,0
2017-04-18,21:10:00,77.56,77.56,77.545,77.545,300,0
2017-04-18,21:15:00,77.54,77.545,77.48,77.5,2900,0
2017-04-18,21:20:00,77.49,77.51,77.49,77.49,1100,0
2017-04-18,21:25:00,77.52,77.56,77.52,77.53,2000,0
2017-04-18,21:30:00,77.55,77.596,77.54,77.596,1800,0
2017-04-18,21:35:00,77.596,77.596,77.54,77.59,4003,0
2017-04-18,21:40:00,77.58,77.65,77.58,77.62,2300,0
2017-04-18,21:45:00,77.638,77.68,77.585,77.6,3446,0
2017-04-18,21:50:00,77.57,77.61,77.57,77.605,4086,0
2017-04-18,21:55:00,77.61,77.61,77.54,77.54,8200,0
2017-04-18,22:00:00,77.54,77.61,77.54,77.57,39861,0
2017-04-19,15:35:00,77.87,77.87,77.87,77.87,2230,0
2017-04-19,15:40:00,77.88,77.89,77.7,77.87,700,0
2017-04-19,15:45:00,77.76,77.82,77.67,77.75,1900,0
2017-04-19,15:50:00,77.76,77.76,77.69,77.69,300,0
2017-04-19,15:55:00,77.68,77.84,77.65,77.84,4139,0
2017-04-19,16:00:00,77.79,77.79,77.78,77.78,200,0
2017-04-19,16:05:00,77.81,77.82,77.75,77.81,1000,0
2017-04-19,16:10:00,77.82,77.92,77.805,77.805,2450,0
2017-04-19,16:15:00,77.8,77.855,77.8,77.855,2300,0
2017-04-19,16:20:00,77.7984,77.83,77.7984,77.825,422,0
2017-04-19,16:25:00,77.82,77.83,77.81,77.81,500,0
2017-04-19,16:35:00,77.77,77.81,77.77,77.81,1270,0
2017-04-19,16:40:00,77.82,77.9,77.79,77.83,7503,0
2017-04-19,16:45:00,77.82,77.825,77.8,77.8,400,0
2017-04-19,16:50:00,77.779,77.8,77.75,77.76,906,0
2017-04-19,16:55:00,77.7497,77.8,77.7497,77.8,566,0
2017-04-19,17:00:00,77.8,77.815,77.79,77.79,600,0
2017-04-19,17:05:00,77.79,77.79,77.75,77.75,311,0
2017-04-19,17:10:00,77.735,77.735,77.71,77.71,200,0
2017-04-19,17:15:00,77.7,77.74,77.69,77.74,800,0
2017-04-19,17:25:00,77.67,77.7,77.67,77.7,700,0
2017-04-19,17:30:00,77.71,77.8,77.71,77.79,4509,0
2017-04-19,17:35:00,77.79,77.81,77.79,77.8,736,0
2017-04-19,17:40:00,77.77,77.83,77.76,77.81,2709,0
2017-04-19,17:45:00,77.81,77.81,77.78,77.79,902,0
2017-04-19,17:50:00,77.75,77.77,77.75,77.76,1134,0
2017-04-19,17:55:00,77.76,77.78,77.75,77.77,1500,0
2017-04-19,18:00:00,77.77,77.78,77.77,77.78,400,0
2017-04-19,18:05:00,77.78,77.83,77.75,77.78,1440,0
2017-04-19,18:10:00,77.79,77.81,77.79,77.79,500,0
2017-04-19,18:15:00,77.765,77.765,77.73,77.75,700,0
2017-04-19,18:20:00,77.74,77.75,77.72,77.75,400,0
2017-04-19,18:25:00,77.71,77.76,77.71,77.76,1200,0
2017-04-19,18:30:00,77.74,77.745,77.73,77.73,1172,0
2017-04-19,18:35:00,77.75,77.88,77.75,77.8524,1314,0
2017-04-19,18:40:00,77.85,77.85,77.84,77.85,500,0
2017-04-19,18:45:00,77.825,77.83,77.81,77.81,500,0
2017-04-19,18:50:00,77.78,77.79,77.78,77.79,400,0
2017-04-19,18:55:00,77.76,77.76,77.76,77.76,100,0
2017-04-19,19:00:00,77.79,77.8,77.785,77.7892,1270,0
2017-04-19,19:05:00,77.77,77.78,77.76,77.775,600,0
2017-04-19,19:10:00,77.75,77.78,77.74,77.75,1300,0
2017-04-19,19:15:00,77.78,77.9,77.76,77.9,6314,0
2017-04-19,19:20:00,77.87,77.88,77.87,77.88,400,0
2017-04-19,19:25:00,77.851,77.92,77.851,77.92,950,0
2017-04-19,19:30:00,77.89,77.9052,77.89,77.9,500,0
2017-04-19,19:35:00,77.87,77.9,77.87,77.9,400,0
2017-04-19,19:40:00,77.84,77.86,77.84,77.86,200,0
2017-04-19,19:45:00,77.85,77.93,77.85,77.93,1103,0
2017-04-19,19:50:00,77.93,77.93,77.905,77.905,200,0
2017-04-19,19:55:00,77.9,77.9,77.87,77.9,12018,0
2017-04-19,20:00:00,77.9,77.9,77.8999,77.8999,214,0
2017-04-19,20:05:00,77.9,77.9,77.86,77.87,600,0
2017-04-19,20:10:00,77.85,77.85,77.83,77.84,1423,0
2017-04-19,20:15:00,77.84,77.84,77.84,77.84,300,0
2017-04-19,20:20:00,77.84,77.84,77.84,77.84,100,0
2017-04-19,20:25:00,77.8,77.8,77.79,77.79,1259,0
2017-04-19,20:30:00,77.76,77.82,77.76,77.76,32077,0
2017-04-19,20:35:00,77.8,77.823,77.79,77.823,21357,0
2017-04-19,20:40:00,77.83,77.83,77.8,77.8,3771,0
2017-04-19,20:45:00,77.83,77.83,77.71,77.71,1500,0
2017-04-19,20:50:00,77.71,77.73,77.69,77.69,500,0
2017-04-19,20:55:00,77.68,77.68,77.59,77.6,1883,0
2017-04-19,21:00:00,77.62,77.62,77.59,77.59,1361,0
2017-04-19,21:05:00,77.58,77.605,77.56,77.605,1000,0
2017-04-19,21:10:00,77.59,77.63,77.58,77.63,2941,0
2017-04-19,21:15:00,77.63,77.63,77.62,77.62,1100,0
2017-04-19,21:20:00,77.56,77.59,77.56,77.59,900,0
2017-04-19,21:25:00,77.57,77.6,77.56,77.6,1780,0
2017-04-19,21:30:00,77.6,77.635,77.58,77.58,3800,0
2017-04-19,21:35:00,77.55,77.57,77.52,77.53,20623,0
2017-04-19,21:40:00,77.55,77.62,77.54,77.6,4488,0
2017-04-19,21:45:00,77.6,77.6,77.51,77.54,5419,0
2017-04-19,21:50:00,77.55,77.63,77.55,77.62,8028,0
2017-04-19,21:55:00,77.61,77.63,77.555,77.63,7917,0
2017-04-19,22:00:00,77.62,77.63,77.54,77.55,30421,0
2017-04-20,15:35:00,76.95,76.95,76.95,76.95,7262,0
2017-04-20,15:40:00,77.67,77.68,77.31,77.57,1068,0
2017-04-20,15:45:00,77.49,77.6997,77.39,77.61,2423,0
2017-04-20,15:50:00,77.62,77.665,77.51,77.575,1100,0
2017-04-20,15:55:00,77.555,77.555,77.4,77.49,2890,0
2017-04-20,16:00:00,77.46,77.49,77.42,77.49,2800,0
2017-04-20,16:05:00,77.45,77.64,77.45,77.55,3200,0
2017-04-20,16:10:00,77.54,77.61,77.54,77.61,2100,0
2017-04-20,16:15:00,77.635,77.685,77.62,77.62,2088,0
2017-04-20,16:20:00,77.59,77.59,77.47,77.48,1600,0
2017-04-20,16:25:00,77.515,77.515,77.44,77.47,7650,0
2017-04-20,16:30:00,77.44,77.45,77.41,77.45,1000,0
2017-04-20,16:35:00,77.47,77.52,77.47,77.52,200,0
2017-04-20,16:40:00,77.48,77.48,77.42,77.44,900,0
2017-04-20,16:45:00,77.51,77.58,77.48,77.58,1200,0
2017-04-20,16:50:00,77.55,77.56,77.52,77.52,600,0
2017-04-20,16:55:00,77.55,77.56,77.46,77.46,800,0
2017-04-20,17:00:00,77.47,77.51,77.45,77.48,1000,0
2017-04-20,17:05:00,77.44,77.465,77.44,77.44,900,0
2017-04-20,17:10:00,77.465,77.5625,77.465,77.51,2625,0
2017-04-20,17:15:00,77.56,77.56,77.54,77.54,200,0
2017-04-20,17:20:00,77.55,77.59,77.53,77.56,15158,0
2017-04-20,17:25:00,77.61,77.61,77.47,77.57,7300,0
2017-04-20,17:30:00,77.66,77.66,77.52,77.52,4805,0
2017-04-20,17:35:00,77.52,77.52,77.44,77.505,1701,0
2017-04-20,17:40:00,77.495,77.53,77.47,77.51,18874,0
2017-04-20,17:45:00,77.48,77.49,77.44,77.49,10935,0
2017-04-20,17:50:00,77.49,77.63,77.48,77.63,5500,0
2017-04-20,17:55:00,77.578,77.58,77.578,77.58,439,0
2017-04-20,18:00:00,77.58,77.61,77.57,77.61,500,0
2017-04-20,18:05:00,77.62,77.7,77.62,77.69,1000,0
2017-04-20,18:10:00,77.7,77.7,77.68,77.68,300,0
2017-04-20,18:15:00,77.73,77.84,77.73,77.84,800,0
2017-04-20,18:20:00,77.84,77.84,77.77,77.81,654,0
2017-04-20,18:25:00,77.81,77.865,77.81,77.83,2200,0
2017-04-20,18:30:00,77.83,77.86,77.83,77.86,200,0
2017-04-20,18:35:00,77.83,77.83,77.81,77.81,200,0
2017-04-20,18:40:00,77.84,77.84,77.84,77.84,100,0
2017-04-20,18:45:00,77.8,77.87,77.8,77.87,600,0
2017-04-20,18:50:00,77.87,77.87,77.87,77.87,300,0
2017-04-20,18:55:00,77.91,77.92,77.91,77.92,300,0
2017-04-20,19:00:00,77.895,77.895,77.81,77.81,400,0
2017-04-20,19:05:00,77.81,77.87,77.8,77.87,2100,0
2017-04-20,19:10:00,77.86,77.86,77.83,77.83,300,0
2017-04-20,19:15:00,77.82,77.84,77.82,77.84,200,0
2017-04-20,19:20:00,77.83,77.84,77.81,77.81,1100,0
2017-04-20,19:25:00,77.8,77.82,77.8,77.81,902,0
2017-04-20,19:30:00,77.81,77.829,77.78,77.805,1400,0
2017-04-20,19:35:00,77.79,77.86,77.79,77.85,2593,0
2017-04-20,19:40:00,77.899,77.899,77.87,77.87,300,0
2017-04-20,19:45:00,77.89,77.9,77.86,77.88,2200,0
2017-04-20,19:50:00,77.909,77.91,77.8894,77.89,2300,0
2017-04-20,19:55:00,77.91,77.97,77.91,77.96,900,0
2017-04-20,20:00:00,77.97,77.99,77.97,77.975,1400,0
2017-04-20,20:05:00,77.96,77.97,77.935,77.935,3434,0
2017-04-20,20:10:00,77.935,77.95,77.84,77.84,3158,0
2017-04-20,20:15:00,77.83,77.855,77.74,77.78,2800,0
2017-04-20,20:20:00,77.8,77.84,77.77,77.839,4239,0
2017-04-20,20:25:00,77.815,77.97,77.815,77.97,2900,0
2017-04-20,20:30:00,77.935,77.99,77.935,77.98,5100,0
2017-04-20,20:35:00,77.95,77.99,77.93,77.989,8836,0
2017-04-20,20:40:00,78,78.15,77.97,78.11,15919,0
2017-04-20,20:45:00,78.115,78.17,78.115,78.169,3503,0
2017-04-20,20:50:00,78.16,78.19,78.14,78.19,4497,0
2017-04-20,20:55:00,78.19,78.26,78.15,78.25,4400,0
2017-04-20,21:00:00,78.25,78.27,78.23,78.23,6564,0
2017-04-20,21:05:00,78.23,78.3,78.22,78.295,2970,0
2017-04-20,21:10:00,78.305,78.32,78.26,78.32,3100,0
2017-04-20,21:15:00,78.31,78.31,78.26,78.305,3013,0
2017-04-20,21:20:00,78.3025,78.305,78.18,78.18,8764,0
2017-04-20,21:25:00,78.2,78.2,78.13,78.14,4435,0
2017-04-20,21:30:00,78.15,78.155,78.13,78.135,1531,0
2017-04-20,21:35:00,78.13,78.13,78.07,78.11,3479,0
2017-04-20,21:40:00,78.09,78.09,78.01,78.04,4683,0
2017-04-20,21:45:00,78.04,78.05,77.99,77.99,3656,0
2017-04-20,21:50:00,77.99,77.99,77.92,77.9275,9727,0
2017-04-20,21:55:00,77.945,78.01,77.945,77.96,7388,0
2017-04-20,22:00:00,77.96,77.96,77.82,77.82,47679,0
2017-04-21,15:35:00,78.18,78.64,78.18,78.63,2898,0
2017-04-21,15:40:00,77.1001,77.54,77.1001,77.49,400,0
2017-04-21,15:45:00,77.77,78.33,77.76,78.28,2363,0
2017-04-21,15:50:00,78.12,78.12,78,78.06,1200,0
2017-04-21,15:55:00,78.1,78.18,78.1,78.18,1100,0
2017-04-21,16:00:00,78.26,78.37,78.21,78.37,2000,0
2017-04-21,16:05:00,78.37,78.37,78.3,78.31,1000,0
2017-04-21,16:10:00,78.36,78.38,78.29,78.29,700,0
2017-04-21,16:15:00,78.31,78.44,78.31,78.44,1183,0
2017-04-21,16:20:00,78.5265,78.55,78.44,78.53,1900,0
2017-04-21,16:25:00,78.51,78.5798,78.51,78.55,1225,0
2017-04-21,16:30:00,78.61,78.61,78.52,78.52,500,0
2017-04-21,16:35:00,78.57,78.57,78.46,78.46,1700,0
2017-04-21,16:40:00,78.45,78.45,78.36,78.36,1100,0
2017-04-21,16:45:00,78.35,78.37,78.35,78.36,500,0
2017-04-21,16:50:00,78.37,78.37,78.31,78.31,2509,0
2017-04-21,16:55:00,78.3,78.3,78.17,78.185,1350,0
2017-04-21,17:00:00,78.15,78.225,78.15,78.225,900,0
2017-04-21,17:05:00,78.27,78.27,78.22,78.22,500,0
2017-04-21,17:10:00,78.22,78.23,78.21,78.23,981,0
2017-04-21,17:15:00,78.235,78.235,78.11,78.11,4385,0
2017-04-21,17:20:00,78.17,78.18,78.17,78.17,300,0
2017-04-21,17:25:00,78.13,78.1563,78.13,78.1563,368,0
2017-04-21,17:30:00,78.17,78.18,78.13,78.18,1800,0
2017-04-21,17:35:00,78.18,78.18,78.16,78.16,300,0
2017-04-21,17:40:00,78.16,78.16,78.16,78.16,100,0
2017-04-21,17:45:00,78.175,78.19,78.17,78.19,800,0
2017-04-21,17:50:00,78.18,78.215,78.18,78.215,400,0
2017-04-21,17:55:00,78.21,78.24,78.19,78.24,700,0
2017-04-21,18:00:00,78.23,78.23,78.23,78.23,100,0
2017-04-21,18:05:00,78.19,78.225,78.19,78.2,3000,0
2017-04-21,18:10:00,78.21,78.21,78.18,78.19,1600,0
2017-04-21,18:15:00,78.19,78.19,78.11,78.11,2175,0
2017-04-21,18:20:00,78.1,78.12,78.095,78.12,970,0
2017-04-21,18:25:00,78.14,78.17,78.14,78.17,500,0
2017-04-21,18:35:00,78.16,78.17,78.14,78.17,1520,0
2017-04-21,18:40:00,78.16,78.18,78.15,78.15,300,0
2017-04-21,18:50:00,78.17,78.2,78.15,78.2,500,0
2017-04-21,18:55:00,78.2,78.2,78.18,78.2,686,0
2017-04-21,19:00:00,78.23,78.23,78.23,78.23,305,0
2017-04-21,19:05:00,78.27,78.27,78.26,78.26,700,0
2017-04-21,19:10:00,78.23,78.23,78.23,78.23,100,0
2017-04-21,19:15:00,78.22,78.22,78.13,78.13,1800,0
2017-04-21,19:20:00,78.14,78.14,78.12,78.12,954,0
2017-04-21,19:25:00,78.15,78.15,78.13,78.13,400,0
2017-04-21,19:30:00,78.18,78.19,78,78.07,7700,0
2017-04-21,19:35:00,78.055,78.1,78.055,78.1,600,0
2017-04-21,19:40:00,78.115,78.13,78.09,78.11,1300,0
2017-04-21,19:45:00,78.1,78.14,78.08,78.13,2220,0
2017-04-21,19:50:00,78.18,78.18,78.15,78.16,400,0
2017-04-21,19:55:00,78.15,78.16,78.15,78.16,1101,0
2017-04-21,20:00:00,78.2,78.2,78.2,78.2,100,0
2017-04-21,20:05:00,78.22,78.225,78.14,78.17,1736,0
2017-04-21,20:15:00,78.19,78.21,78.16,78.16,1100,0
2017-04-21,20:20:00,78.16,78.16,78.16,78.16,300,0
2017-04-21,20:25:00,78.14,78.195,78.135,78.195,1644,0
2017-04-21,20:30:00,78.29,78.29,78.25,78.25,200,0
2017-04-21,20:35:00,78.25,78.32,78.25,78.29,400,0
2017-04-21,20:40:00,78.27,78.27,78.27,78.27,100,0
2017-04-21,20:45:00,78.285,78.285,78.21,78.21,1900,0
2017-04-21,20:50:00,78.22,78.22,78.21,78.21,700,0
2017-04-21,20:55:00,78.19,78.19,78.155,78.16,7321,0
2017-04-21,21:00:00,78.18,78.2,78.15,78.15,2400,0
2017-04-21,21:05:00,78.16,78.17,78.15,78.155,823,0
2017-04-21,21:10:00,78.14,78.15,78.13,78.14,1977,0
2017-04-21,21:15:00,78.145,78.21,78.13,78.21,2891,0
2017-04-21,21:20:00,78.17,78.22,78.16,78.17,2400,0
2017-04-21,21:25:00,78.15,78.16,78.13,78.145,1300,0
2017-04-21,21:30:00,78.145,78.16,78.13,78.15,900,0
2017-04-21,21:35:00,78.165,78.165,78.1,78.1,2100,0
2017-04-21,21:40:00,78.11,78.14,78.11,78.13,2927,0
2017-04-21,21:45:00,78.13,78.16,78.1,78.12,5865,0
2017-04-21,21:50:00,78.14,78.16,78.12,78.14,3782,0
2017-04-21,21:55:00,78.14,78.14,78.06,78.06,7686,0
2017-04-21,22:00:00,78.05,78.0542,77.98,77.99,32228,0
2017-04-24,15:35:00,78.97,78.97,78.3495,78.59,4808,0
2017-04-24,15:40:00,78.88,78.88,78.53,78.755,1617,0
2017-04-24,15:45:00,78.73,78.73,78.62,78.62,400,0
2017-04-24,15:50:00,78.44,78.46,78.44,78.46,500,0
2017-04-24,15:55:00,78.41,78.42,78.385,78.385,300,0
2017-04-24,16:00:00,78.4,78.41,78.35,78.35,1200,0
2017-04-24,16:05:00,78.35,78.5,78.35,78.4025,1700,0
2017-04-24,16:10:00,78.38,78.38,78.095,78.13,3235,0
2017-04-24,16:15:00,78.075,78.13,78.075,78.1,1300,0
2017-04-24,16:20:00,78.105,78.2,78.1,78.14,900,0
2017-04-24,16:25:00,78.19,78.19,78.19,78.19,300,0
2017-04-24,16:30:00,78.26,78.26,78.25,78.25,200,0
2017-04-24,16:35:00,78.28,78.3073,78.23,78.256,1211,0
2017-04-24,16:40:00,78.19,78.19,78.17,78.17,300,0
2017-04-24,16:45:00,78.16,78.16,78.15,78.15,400,0
2017-04-24,16:50:00,78.11,78.11,78.07,78.07,500,0
2017-04-24,16:55:00,78.1,78.12,78.05,78.12,1600,0
2017-04-24,17:00:00,78.05,78.05,78.05,78.05,100,0
2017-04-24,17:05:00,78.06,78.06,78.01,78.05,1200,0
2017-04-24,17:10:00,78.03,78.06,78.01,78.04,2208,0
2017-04-24,17:15:00,78.03,78.03,77.93,77.93,900,0
2017-04-24,17:20:00,77.87,77.87,77.85,77.85,900,0
2017-04-24,17:25:00,77.84,77.9,77.84,77.87,1000,0
2017-04-24,17:30:00,77.86,77.915,77.86,77.915,500,0
2017-04-24,17:35:00,77.94,77.95,77.9,77.9,1020,0
2017-04-24,17:40:00,77.89,77.94,77.89,77.92,1700,0
2017-04-24,17:45:00,77.9,77.9,77.81,77.89,1228,0
2017-04-24,17:50:00,77.91,77.91,77.85,77.88,924,0
2017-04-24,17:55:00,77.88,77.92,77.87,77.89,1514,0
2017-04-24,18:00:00,77.86,77.9,77.8,77.8,1108,0
2017-04-24,18:05:00,77.855,77.89,77.83,77.89,300,0
2017-04-24,18:10:00,77.84,77.84,77.84,77.84,100,0
2017-04-24,18:15:00,77.85,77.88,77.84,77.84,3500,0
2017-04-24,18:20:00,77.83,77.83,77.78,77.8,1600,0
2017-04-24,18:25:00,77.808,77.816,77.72,77.72,1231,0
2017-04-24,18:30:00,77.735,77.8,77.735,77.785,1314,0
2017-04-24,18:35:00,77.79,77.795,77.775,77.79,1718,0
2017-04-24,18:40:00,77.81,77.9,77.81,77.88,2400,0
2017-04-24,18:45:00,77.88,77.925,77.88,77.925,900,0
2017-04-24,18:50:00,77.96,77.96,77.935,77.935,200,0
2017-04-24,18:55:00,77.92,77.93,77.92,77.93,524,0
2017-04-24,19:00:00,77.91,77.915,77.91,77.91,400,0
2017-04-24,19:05:00,77.94,77.94,77.92,77.92,500,0
2017-04-24,19:10:00,77.91,77.925,77.91,77.925,200,0
2017-04-24,19:15:00,77.93,77.93,77.89,77.92,2001,0
2017-04-24,19:20:00,77.95,77.98,77.95,77.98,1044,0
2017-04-24,19:25:00,77.98,78.01,77.96,78.01,2746,0
2017-04-24,19:30:00,78.02,78.02,78.01,78.02,800,0
2017-04-24,19:35:00,78.02,78.02,78,78,400,0
2017-04-24,19:40:00,78.015,78.06,78.015,78.06,400,0
2017-04-24,19:45:00,78.05,78.06,78.04,78.04,800,0
2017-04-24,19:50:00,78.04,78.05,78.02,78.05,1300,0
2017-04-24,19:55:00,78.04,78.07,78.04,78.07,400,0
2017-04-24,20:00:00,78.07,78.11,78.07,78.11,600,0
2017-04-24,20:05:00,78.13,78.15,78.09,78.09,1723,0
2017-04-24,20:10:00,78.1,78.14,78.09,78.14,1000,0
2017-04-24,20:15:00,78.13,78.135,78.1,78.11,1603,0
2017-04-24,20:20:00,78.12,78.22,78.12,78.22,1764,0
2017-04-24,20:25:00,78.21,78.21,78.18,78.2075,827,0
2017-04-24,20:30:00,78.22,78.22,78.19,78.2,600,0
2017-04-24,20:35:00,78.21,78.25,78.195,78.23,1200,0
2017-04-24,20:40:00,78.23,78.23,78.2,78.21,1000,0
2017-04-24,20:45:00,78.2,78.21,78.17,78.17,1400,0
2017-04-24,20:50:00,78.17,78.18,78.16,78.18,808,0
2017-04-24,20:55:00,78.17,78.252,78.1494,78.252,5715,0
2017-04-24,21:00:00,78.25,78.27,78.24,78.27,1536,0
2017-04-24,21:05:00,78.27,78.36,78.27,78.36,2295,0
2017-04-24,21:10:00,78.38,78.38,78.32,78.36,2165,0
2017-04-24,21:15:00,78.37,78.41,78.35,78.41,2800,0
2017-04-24,21:20:00,78.41,78.41,78.34,78.36,1704,0
2017-04-24,21:25:00,78.35,78.36,78.35,78.35,2200,0
2017-04-24,21:30:00,78.33,78.37,78.32,78.33,2891,0
2017-04-24,21:35:00,78.335,78.37,78.32,78.32,3200,0
2017-04-24,21:40:00,78.33,78.375,78.33,78.35,3126,0
2017-04-24,21:45:00,78.35,78.37,78.34,78.34,5038,0
2017-04-24,21:50:00,78.34,78.34,78.28,78.28,6167,0
2017-04-24,21:55:00,78.28,78.3,78.255,78.27,9375,0
2017-04-24,22:00:00,78.26,78.3,78.225,78.3,55420,0
2017-04-25,15:35:00,78.35,78.35,77.62,77.62,1544,0
2017-04-25,15:40:00,78.27,78.93,78.21,78.93,2900,0
2017-04-25,15:45:00,78.92,78.96,78.615,78.84,4272,0
2017-04-25,15:50:00,78.91,78.96,78.86,78.86,1100,0
2017-04-25,15:55:00,78.93,79.09,78.93,79.09,1200,0
2017-04-25,16:00:00,79.12,79.17,78.81,78.81,3488,0
2017-04-25,16:05:00,78.88,78.96,78.88,78.96,5400,0
2017-04-25,16:10:00,78.85,78.95,78.84,78.95,1303,0
2017-04-25,16:15:00,78.92,78.94,78.69,78.715,4400,0
2017-04-25,16:20:00,78.65,78.72,78.575,78.65,1704,0
2017-04-25,16:25:00,78.62,78.62,78.52,78.58,700,0
2017-04-25,16:30:00,78.58,78.59,78.58,78.59,200,0
2017-04-25,16:35:00,78.54,78.65,78.52,78.65,812,0
2017-04-25,16:40:00,78.65,78.65,78.61,78.61,1100,0
2017-04-25,16:45:00,78.6,78.64,78.6,78.6,600,0
2017-04-25,16:50:00,78.59,78.59,78.59,78.59,100,0
2017-04-25,16:55:00,78.54,78.595,78.5,78.595,1000,0
2017-04-25,17:00:00,78.61,78.61,78.54,78.54,400,0
2017-04-25,17:05:00,78.54,78.54,78.52,78.52,200,0
2017-04-25,17:10:00,78.56,78.6,78.555,78.5587,427,0
2017-04-25,17:15:00,78.555,78.58,78.53,78.53,600,0
2017-04-25,17:20:00,78.54,78.54,78.54,78.54,100,0
2017-04-25,17:25:00,78.595,78.62,78.56,78.62,900,0
2017-04-25,17:30:00,78.61,78.65,78.56,78.56,2901,0
2017-04-25,17:40:00,78.595,78.595,78.51,78.51,800,0
2017-04-25,17:45:00,78.51,78.56,78.51,78.52,596,0
2017-04-25,17:50:00,78.54,78.58,78.54,78.575,600,0
2017-04-25,17:55:00,78.6,78.6,78.57,78.57,300,0
2017-04-25,18:00:00,78.59,78.64,78.59,78.635,1400,0
2017-04-25,18:05:00,78.61,78.61,78.58,78.58,300,0
2017-04-25,18:10:00,78.57,78.59,78.56,78.57,800,0
2017-04-25,18:15:00,78.56,78.56,78.51,78.52,800,0
2017-04-25,18:20:00,78.51,78.51,78.48,78.49,1100,0
2017-04-25,18:25:00,78.51,78.55,78.48,78.48,700,0
2017-04-25,18:30:00,78.51,78.51,78.51,78.51,100,0
2017-04-25,18:35:00,78.4549,78.455,78.43,78.43,450,0
2017-04-25,18:40:00,78.41,78.425,78.38,78.3993,1500,0
2017-04-25,18:45:00,78.38,78.46,78.38,78.42,794,0
2017-04-25,18:50:00,78.42,78.42,78.42,78.42,100,0
2017-04-25,18:55:00,78.435,78.435,78.435,78.435,100,0
2017-04-25,19:00:00,78.45,78.45,78.36,78.43,3438,0
2017-04-25,19:05:00,78.43,78.43,78.39,78.39,200,0
2017-04-25,19:10:00,78.42,78.43,78.38,78.38,713,0
2017-04-25,19:15:00,78.42,78.46,78.39,78.41,400,0
2017-04-25,19:20:00,78.42,78.42,78.4,78.41,900,0
2017-04-25,19:25:00,78.42,78.44,78.4,78.4,400,0
2017-04-25,19:30:00,78.38,78.38,78.37,78.37,300,0
2017-04-25,19:35:00,78.4,78.42,78.38,78.42,700,0
2017-04-25,19:40:00,78.41,78.43,78.4,78.43,600,0
2017-04-25,19:45:00,78.42,78.44,78.4117,78.4117,445,0
2017-04-25,19:50:00,78.42,78.44,78.42,78.434,500,0
2017-04-25,19:55:00,78.47,78.47,78.455,78.455,580,0
2017-04-25,20:05:00,78.44,78.45,78.39,78.41,2900,0
2017-04-25,20:10:00,78.44,78.44,78.44,78.44,200,0
2017-04-25,20:15:00,78.475,78.51,78.46,78.465,1300,0
2017-04-25,20:20:00,78.46,78.47,78.43,78.45,527,0
2017-04-25,20:25:00,78.45,78.45,78.45,78.45,100,0
2017-04-25,20:30:00,78.43,78.44,78.37,78.37,2700,0
2017-04-25,20:35:00,78.4,78.45,78.4,78.45,400,0
2017-04-25,20:40:00,78.41,78.41,78.41,78.41,600,0
2017-04-25,20:45:00,78.405,78.45,78.4,78.45,1200,0
2017-04-25,20:50:00,78.44,78.49,78.44,78.49,900,0
2017-04-25,20:55:00,78.51,78.7,78.46,78.63,5477,0
2017-04-25,21:00:00,78.655,78.75,78.61,78.66,6018,0
2017-04-25,21:05:00,78.67,78.71,78.67,78.69,15300,0
2017-04-25,21:10:00,78.69,78.73,78.68,78.73,3000,0
2017-04-25,21:15:00,78.73,78.79,78.73,78.755,1700,0
2017-04-25,21:20:00,78.74,78.77,78.71,78.77,2783,0
2017-04-25,21:25:00,78.74,78.74,78.68,78.68,2734,0
2017-04-25,21:30:00,78.68,78.7,78.68,78.7,1100,0
2017-04-25,21:35:00,78.68,78.68,78.6,78.645,5228,0
2017-04-25,21:40:00,78.65,78.8,78.62,78.76,62855,0
2017-04-25,21:45:00,78.76,78.805,78.76,78.78,7975,0
2017-04-25,21:50:00,78.79,78.79,78.73,78.75,6897,0
2017-04-25,21:55:00,78.76,78.76,78.6,78.73,13691,0
2017-04-25,22:00:00,78.7,78.78,78.69,78.73,47553,0
2017-04-26,15:35:00,78.92,79.37,78.92,79.31,2972,0
2017-04-26,15:40:00,79.18,79.41,79.13,79.18,1100,0
2017-04-26,15:45:00,79.07,79.2,78.905,78.94,9154,0
2017-04-26,15:50:00,79.04,79.04,79.04,79.04,300,0
2017-04-26,15:55:00,79.115,79.115,78.88,78.92,2700,0
2017-04-26,16:00:00,78.89,78.89,78.79,78.84,2150,0
2017-04-26,16:05:00,78.825,78.83,78.69,78.79,3576,0
2017-04-26,16:10:00,78.82,78.94,78.82,78.94,901,0
2017-04-26,16:15:00,78.92,78.97,78.89,78.97,2793,0
2017-04-26,16:20:00,79.02,79.15,78.92,79.03,3300,0
2017-04-26,16:25:00,79.03,79.055,79.03,79.045,400,0
2017-04-26,16:30:00,79.17,79.17,79.12,79.12,1400,0
2017-04-26,16:35:00,79.16,79.3,79.13,79.2,1841,0
2017-04-26,16:40:00,79.27,79.33,79.24,79.25,3700,0
2017-04-26,16:45:00,79.24,79.265,79.2,79.245,3635,0
2017-04-26,16:50:00,79.27,79.2768,79.23,79.23,2009,0
2017-04-26,16:55:00,79.23,79.3,79.23,79.275,5324,0
2017-04-26,17:00:00,79.27,79.33,79.27,79.31,2302,0
2017-04-26,17:05:00,79.295,79.34,79.24,79.24,3522,0
2017-04-26,17:10:00,79.25,79.315,79.25,79.26,1700,0
2017-04-26,17:15:00,79.29,79.29,79.29,79.29,500,0
2017-04-26,17:20:00,79.26,79.33,79.231,79.33,1100,0
2017-04-26,17:25:00,79.29,79.35,79.25,79.3,1300,0
2017-04-26,17:30:00,79.3,79.3,79.3,79.3,100,0
2017-04-26,17:35:00,79.36,79.37,79.24,79.27,3768,0
2017-04-26,17:40:00,79.35,79.35,79.32,79.34,400,0
2017-04-26,17:45:00,79.33,79.33,79.24,79.25,2102,0
2017-04-26,17:50:00,79.235,79.26,79.17,79.17,900,0
2017-04-26,17:55:00,79.14,79.2,79.14,79.2,3500,0
2017-04-26,18:00:00,79.23,79.23,79.17,79.205,716,0
2017-04-26,18:05:00,79.18,79.18,79.15,79.17,1800,0
2017-04-26,18:10:00,79.14,79.16,79.11,79.13,3800,0
2017-04-26,18:15:00,79.1,79.13,79.06,79.13,2700,0
2017-04-26,18:20:00,79.13,79.17,79.09,79.09,500,0
2017-04-26,18:25:00,79.11,79.11,79.05,79.065,1500,0
2017-04-26,18:30:00,79.09,79.13,79.07,79.1,1262,0
2017-04-26,18:35:00,79.11,79.16,79.11,79.16,400,0
2017-04-26,18:40:00,79.145,79.145,79.08,79.08,700,0
2017-04-26,18:45:00,79.14,79.16,79.1,79.115,1050,0
2017-04-26,18:50:00,79.14,79.16,79.11,79.11,2200,0
2017-04-26,18:55:00,79.12,79.24,79.12,79.23,800,0
2017-04-26,19:00:00,79.245,79.31,79.23,79.31,1200,0
2017-04-26,19:05:00,79.27,79.27,79.21,79.21,2150,0
2017-04-26,19:10:00,79.22,79.35,79.22,79.34,1600,0
2017-04-26,19:15:00,79.33,79.33,79.28,79.32,1100,0
2017-04-26,19:20:00,79.33,79.41,79.33,79.35,900,0
2017-04-26,19:25:00,79.37,79.38,79.36,79.36,1967,0
2017-04-26,19:30:00,79.4,79.4,79.31,79.31,900,0
2017-04-26,19:35:00,79.3,79.3,79.26,79.29,1600,0
2017-04-26,19:40:00,79.3,79.37,79.3,79.37,1800,0
2017-04-26,19:45:00,79.31,79.47,79.3,79.4,3668,0
2017-04-26,19:50:00,79.39,79.405,79.32,79.345,2400,0
2017-04-26,19:55:00,79.36,79.5,79.33,79.47,2244,0
2017-04-26,20:00:00,79.46,79.46,79.34,79.35,1495,0
2017-04-26,20:05:00,79.31,79.36,79.31,79.36,646,0
2017-04-26,20:10:00,79.32,79.36,79.29,79.33,1421,0
2017-04-26,20:15:00,79.35,79.36,79.32,79.35,500,0
2017-04-26,20:20:00,79.35,79.35,79.28,79.32,5009,0
2017-04-26,20:25:00,79.31,79.33,79.28,79.33,1200,0
2017-04-26,20:30:00,79.29,79.345,79.28,79.345,5307,0
2017-04-26,20:35:00,79.315,79.4,79.315,79.35,7080,0
2017-04-26,20:40:00,79.35,79.48,79.33,79.39,7708,0
2017-04-26,20:45:00,79.401,79.43,79.4,79.41,1800,0
2017-04-26,20:50:00,79.39,79.465,79.39,79.39,2300,0
2017-04-26,20:55:00,79.41,79.44,79.41,79.43,600,0
2017-04-26,21:00:00,79.435,79.45,79.39,79.4,3000,0
2017-04-26,21:05:00,79.39,79.47,79.38,79.46,1798,0
2017-04-26,21:10:00,79.46,79.47,79.44,79.44,1300,0
2017-04-26,21:15:00,79.43,79.46,79.4,79.42,3553,0
2017-04-26,21:20:00,79.41,79.44,79.41,79.425,2100,0
2017-04-26,21:25:00,79.425,79.425,79.39,79.4,2400,0
2017-04-26,21:30:00,79.4,79.48,79.39,79.48,11209,0
2017-04-26,21:35:00,79.48,79.5,79.45,79.48,16240,0
2017-04-26,21:40:00,79.47,79.48,79.44,79.44,11924,0
2017-04-26,21:45:00,79.46,79.47,79.38,79.38,14167,0
2017-04-26,21:50:00,79.38,79.38,79.31,79.35,13832,0
2017-04-26,21:55:00,79.34,79.35,79.25,79.25,13590,0
2017-04-26,22:00:00,79.245,79.34,79.245,79.34,31180,0
